
 Dense Matrix/Dense Vector Multiplication:
   Blaze [MFlop/s]:
     414         8231.94
     455         9209.09
     500         10570
     550         11557.6
     605         12716.3
     665         13759
     731         14837.1
     804         16310.2
     884         17694.3
     972         18331.8
     1069        19303
     1175        19878.3
     1292        20144.7
     1421        18948
     1563        15817.3
     1719        11442.8
     1890        8343.54
     2079        7199.07
     2286        6704.25
     2514        6515.33
     2765        6440.26
     3041        6388.13
     3345        6343.21
     3679        6337.08
     4046        6338.31
     4450        6352.41
     4895        6367.91
     5384        6380.41
     5922        6365.21
     6514        6389.06
     7165        6390.54
     7881        6397.86
     8669        6398.34
     9535        6416.79
     10000       6422.63
/threads{locality#0/total}/idle-rate,1,399.960886,[s],1832,[0.01%]
/threads{locality#0/pool#default/worker-thread#0}/idle-rate,1,399.961338,[s],1911,[0.01%]
/threads{locality#0/pool#default/worker-thread#1}/idle-rate,1,399.960963,[s],1813,[0.01%]
/threads{locality#0/pool#default/worker-thread#2}/idle-rate,1,399.960904,[s],1757,[0.01%]
/threads{locality#0/pool#default/worker-thread#3}/idle-rate,1,399.961357,[s],1847,[0.01%]
/threads{locality#0/total}/time/average,1,399.961354,[s],31636,[ns]
/threads{locality#0/pool#default/worker-thread#0}/time/average,1,399.960976,[s],31251,[ns]
/threads{locality#0/pool#default/worker-thread#1}/time/average,1,399.960907,[s],31895,[ns]
/threads{locality#0/pool#default/worker-thread#2}/time/average,1,399.960981,[s],31872,[ns]
/threads{locality#0/pool#default/worker-thread#3}/time/average,1,399.960909,[s],31529,[ns]
/threads{locality#0/total}/time/cumulative-overhead,1,399.960986,[s],2.90973e+11,[ns]
/threads{locality#0/pool#default/worker-thread#0}/time/cumulative-overhead,1,399.961365,[s],7.58654e+10,[ns]
/threads{locality#0/pool#default/worker-thread#1}/time/cumulative-overhead,1,399.960918,[s],7.19894e+10,[ns]
/threads{locality#0/pool#default/worker-thread#2}/time/cumulative-overhead,1,399.961370,[s],6.97553e+10,[ns]
/threads{locality#0/pool#default/worker-thread#3}/time/cumulative-overhead,1,399.961372,[s],7.33629e+10,[ns]
/threads{locality#0/total}/count/cumulative,1,399.960925,[s],4.09964e+07
/threads{locality#0/pool#default/worker-thread#0}/count/cumulative,1,399.961378,[s],1.02756e+07
/threads{locality#0/pool#default/worker-thread#1}/count/cumulative,1,399.961003,[s],1.01894e+07
/threads{locality#0/pool#default/worker-thread#2}/count/cumulative,1,399.961383,[s],1.02671e+07
/threads{locality#0/pool#default/worker-thread#3}/count/cumulative,1,399.960936,[s],1.02642e+07
/threads{locality#0/total}/time/average-overhead,1,399.961011,[s],7097,[ns]
/threads{locality#0/pool#default/worker-thread#0}/time/average-overhead,1,399.961390,[s],7383,[ns]
/threads{locality#0/pool#default/worker-thread#1}/time/average-overhead,1,399.961016,[s],7065,[ns]
/threads{locality#0/pool#default/worker-thread#2}/time/average-overhead,1,399.960946,[s],6794,[ns]
/threads{locality#0/pool#default/worker-thread#3}/time/average-overhead,1,399.961400,[s],7147,[ns]
