
 Dense Matrix/Dense Matrix Addition:
   Blaze [MFlop/s]:
     200         534.178
     230         691.328
     264         884.467
     300         1100.25
     345         1327.87
     396         1570.58
     455         1892.8
     523         2134.47
     600         2243.59
     690         2228.47
     793         2236.24
     912         2008.43
     1048        1562
     1200        1124.28
     1380        960.298
     1587        941.362
/threads{locality#0/total}/idle-rate,1,167.442328,[s],3979,[0.01%]
/threads{locality#0/pool#default/worker-thread#0}/idle-rate,1,167.440304,[s],3329,[0.01%]
/threads{locality#0/pool#default/worker-thread#1}/idle-rate,1,167.441478,[s],4223,[0.01%]
/threads{locality#0/pool#default/worker-thread#2}/idle-rate,1,167.441283,[s],4236,[0.01%]
/threads{locality#0/pool#default/worker-thread#3}/idle-rate,1,167.442294,[s],4244,[0.01%]
/threads{locality#0/pool#default/worker-thread#4}/idle-rate,1,167.441842,[s],4278,[0.01%]
/threads{locality#0/pool#default/worker-thread#5}/idle-rate,1,167.441651,[s],4299,[0.01%]
/threads{locality#0/pool#default/worker-thread#6}/idle-rate,1,167.441195,[s],4311,[0.01%]
/threads{locality#0/pool#default/worker-thread#7}/idle-rate,1,167.441864,[s],4309,[0.01%]
/threads{locality#0/pool#default/worker-thread#8}/idle-rate,1,167.441093,[s],2988,[0.01%]
/threads{locality#0/pool#default/worker-thread#9}/idle-rate,1,167.440346,[s],3772,[0.01%]
/threads{locality#0/pool#default/worker-thread#10}/idle-rate,1,167.442377,[s],3848,[0.01%]
/threads{locality#0/pool#default/worker-thread#11}/idle-rate,1,167.440353,[s],3917,[0.01%]
/threads{locality#0/total}/time/average,1,167.440591,[s],20505,[ns]
/threads{locality#0/pool#default/worker-thread#0}/time/average,1,167.441111,[s],21146,[ns]
/threads{locality#0/pool#default/worker-thread#1}/time/average,1,167.441115,[s],19964,[ns]
/threads{locality#0/pool#default/worker-thread#2}/time/average,1,167.441119,[s],19692,[ns]
/threads{locality#0/pool#default/worker-thread#3}/time/average,1,167.441123,[s],19546,[ns]
/threads{locality#0/pool#default/worker-thread#4}/time/average,1,167.442358,[s],19319,[ns]
/threads{locality#0/pool#default/worker-thread#5}/time/average,1,167.441713,[s],18994,[ns]
/threads{locality#0/pool#default/worker-thread#6}/time/average,1,167.441134,[s],18993,[ns]
/threads{locality#0/pool#default/worker-thread#7}/time/average,1,167.441138,[s],18770,[ns]
/threads{locality#0/pool#default/worker-thread#8}/time/average,1,167.442418,[s],27348,[ns]
/threads{locality#0/pool#default/worker-thread#9}/time/average,1,167.440394,[s],21468,[ns]
/threads{locality#0/pool#default/worker-thread#10}/time/average,1,167.442425,[s],20925,[ns]
/threads{locality#0/pool#default/worker-thread#11}/time/average,1,167.442431,[s],20857,[ns]
/threads{locality#0/total}/time/cumulative-overhead,1,167.441161,[s],7.94974e+11,[ns]
/threads{locality#0/pool#default/worker-thread#0}/time/cumulative-overhead,1,167.441388,[s],5.54158e+10,[ns]
/threads{locality#0/pool#default/worker-thread#1}/time/cumulative-overhead,1,167.441167,[s],7.02994e+10,[ns]
/threads{locality#0/pool#default/worker-thread#2}/time/cumulative-overhead,1,167.441171,[s],7.05178e+10,[ns]
/threads{locality#0/pool#default/worker-thread#3}/time/cumulative-overhead,1,167.441175,[s],7.06496e+10,[ns]
/threads{locality#0/pool#default/worker-thread#4}/time/cumulative-overhead,1,167.441302,[s],7.12137e+10,[ns]
/threads{locality#0/pool#default/worker-thread#5}/time/cumulative-overhead,1,167.441606,[s],7.15605e+10,[ns]
/threads{locality#0/pool#default/worker-thread#6}/time/cumulative-overhead,1,167.441310,[s],7.177e+10,[ns]
/threads{locality#0/pool#default/worker-thread#7}/time/cumulative-overhead,1,167.442469,[s],7.17388e+10,[ns]
/threads{locality#0/pool#default/worker-thread#8}/time/cumulative-overhead,1,167.440678,[s],4.97489e+10,[ns]
/threads{locality#0/pool#default/worker-thread#9}/time/cumulative-overhead,1,167.442479,[s],6.27956e+10,[ns]
/threads{locality#0/pool#default/worker-thread#10}/time/cumulative-overhead,1,167.442485,[s],6.40623e+10,[ns]
/threads{locality#0/pool#default/worker-thread#11}/time/cumulative-overhead,1,167.441439,[s],6.52021e+10,[ns]
/threads{locality#0/total}/count/cumulative,1,167.441341,[s],5.86389e+07
/threads{locality#0/pool#default/worker-thread#0}/count/cumulative,1,167.442072,[s],5.25076e+06
/threads{locality#0/pool#default/worker-thread#1}/count/cumulative,1,167.441226,[s],4.81616e+06
/threads{locality#0/pool#default/worker-thread#2}/count/cumulative,1,167.441231,[s],4.8716e+06
/threads{locality#0/pool#default/worker-thread#3}/count/cumulative,1,167.441660,[s],4.90133e+06
/threads{locality#0/pool#default/worker-thread#4}/count/cumulative,1,167.441244,[s],4.92968e+06
/threads{locality#0/pool#default/worker-thread#5}/count/cumulative,1,167.441247,[s],4.9958e+06
/threads{locality#0/pool#default/worker-thread#6}/count/cumulative,1,167.440733,[s],4.98488e+06
/threads{locality#0/pool#default/worker-thread#7}/count/cumulative,1,167.442530,[s],5.04586e+06
/threads{locality#0/pool#default/worker-thread#8}/count/cumulative,1,167.442536,[s],4.26725e+06
/threads{locality#0/pool#default/worker-thread#9}/count/cumulative,1,167.442542,[s],4.82827e+06
/threads{locality#0/pool#default/worker-thread#10}/count/cumulative,1,167.441271,[s],4.89305e+06
/threads{locality#0/pool#default/worker-thread#11}/count/cumulative,1,167.441856,[s],4.85427e+06
/threads{locality#0/total}/time/average-overhead,1,167.442511,[s],13557,[ns]
/threads{locality#0/pool#default/worker-thread#0}/time/average-overhead,1,167.441282,[s],10553,[ns]
/threads{locality#0/pool#default/worker-thread#1}/time/average-overhead,1,167.441286,[s],14596,[ns]
/threads{locality#0/pool#default/worker-thread#2}/time/average-overhead,1,167.442522,[s],14475,[ns]
/threads{locality#0/pool#default/worker-thread#3}/time/average-overhead,1,167.442570,[s],14414,[ns]
/threads{locality#0/pool#default/worker-thread#4}/time/average-overhead,1,167.441297,[s],14445,[ns]
/threads{locality#0/pool#default/worker-thread#5}/time/average-overhead,1,167.442578,[s],14324,[ns]
/threads{locality#0/pool#default/worker-thread#6}/time/average-overhead,1,167.440786,[s],14397,[ns]
/threads{locality#0/pool#default/worker-thread#7}/time/average-overhead,1,167.440584,[s],14217,[ns]
/threads{locality#0/pool#default/worker-thread#8}/time/average-overhead,1,167.441332,[s],11658,[ns]
/threads{locality#0/pool#default/worker-thread#9}/time/average-overhead,1,167.441438,[s],13005,[ns]
/threads{locality#0/pool#default/worker-thread#10}/time/average-overhead,1,167.441742,[s],13092,[ns]
/threads{locality#0/pool#default/worker-thread#11}/time/average-overhead,1,167.441549,[s],13431,[ns]
