
 Dense Matrix/Dense Matrix Addition:
   Blaze [MFlop/s]:
     200         630.991
     230         639.182
     264         661.626
     300         667.686
     345         850.997
     396         1113.84
     455         1427.76
     523         1590.22
     600         1717.19
     690         1842.76
     793         1960.06
     912         1321.69
     1048        678.167
     1200        469.949
   N=200, steps=30754
     Blaze       = 1        (1.94957)
   N=230, steps=23382
     Blaze       = 1        (1.93514)
   N=264, steps=18413
     Blaze       = 1        (1.93964)
   N=300, steps=14486
     Blaze       = 1        (1.95263)
   N=345, steps=14219
     Blaze       = 1        (1.98875)
   N=396, steps=13884
     Blaze       = 1        (1.95471)
   N=455, steps=13469
     Blaze       = 1        (1.953)
   N=523, steps=10789
     Blaze       = 1        (1.85578)
   N=600, steps=9190
     Blaze       = 1        (1.92664)
   N=690, steps=7463
     Blaze       = 1        (1.92816)
   N=793, steps=6051
     Blaze       = 1        (1.94135)
   N=912, steps=3084
     Blaze       = 1        (1.94078)
   N=1048, steps=1174
     Blaze       = 1        (1.90131)
   N=1200, steps=657
     Blaze       = 1        (2.01316)
