
 Dense Matrix/Dense Matrix Addition:
   Blaze [MFlop/s]:
     200         464.126
     230         611.389
     264         784.545
     300         988.175
     345         1261.22
     396         1568.99
     455         1849.57
     523         2142.17
     600         2371.55
     690         2381.37
     793         2366.37
     912         2021.3
     1048        1413.82
     1200        1016.18
     1380        837.69
     1587        822.55
/threads{locality#0/total}/idle-rate,1,172.708895,[s],4260,[0.01%]
/threads{locality#0/pool#default/worker-thread#0}/idle-rate,1,172.708537,[s],3265,[0.01%]
/threads{locality#0/pool#default/worker-thread#1}/idle-rate,1,172.708034,[s],4125,[0.01%]
/threads{locality#0/pool#default/worker-thread#2}/idle-rate,1,172.708468,[s],4182,[0.01%]
/threads{locality#0/pool#default/worker-thread#3}/idle-rate,1,172.707532,[s],4209,[0.01%]
/threads{locality#0/pool#default/worker-thread#4}/idle-rate,1,172.707308,[s],4236,[0.01%]
/threads{locality#0/pool#default/worker-thread#5}/idle-rate,1,172.706717,[s],4264,[0.01%]
/threads{locality#0/pool#default/worker-thread#6}/idle-rate,1,172.708806,[s],4288,[0.01%]
/threads{locality#0/pool#default/worker-thread#7}/idle-rate,1,172.706586,[s],4316,[0.01%]
/threads{locality#0/pool#default/worker-thread#8}/idle-rate,1,172.708833,[s],3503,[0.01%]
/threads{locality#0/pool#default/worker-thread#9}/idle-rate,1,172.707344,[s],4463,[0.01%]
/threads{locality#0/pool#default/worker-thread#10}/idle-rate,1,172.708841,[s],4471,[0.01%]
/threads{locality#0/pool#default/worker-thread#11}/idle-rate,1,172.707804,[s],4499,[0.01%]
/threads{locality#0/pool#default/worker-thread#12}/idle-rate,1,172.708600,[s],4550,[0.01%]
/threads{locality#0/pool#default/worker-thread#13}/idle-rate,1,172.708529,[s],4587,[0.01%]
/threads{locality#0/pool#default/worker-thread#14}/idle-rate,1,172.708395,[s],4593,[0.01%]
/threads{locality#0/pool#default/worker-thread#15}/idle-rate,1,172.707822,[s],4604,[0.01%]
/threads{locality#0/total}/time/average,1,172.708717,[s],21160,[ns]
/threads{locality#0/pool#default/worker-thread#0}/time/average,1,172.707831,[s],27549,[ns]
/threads{locality#0/pool#default/worker-thread#1}/time/average,1,172.708411,[s],21894,[ns]
/threads{locality#0/pool#default/worker-thread#2}/time/average,1,172.708880,[s],21425,[ns]
/threads{locality#0/pool#default/worker-thread#3}/time/average,1,172.706800,[s],21092,[ns]
/threads{locality#0/pool#default/worker-thread#4}/time/average,1,172.708890,[s],20928,[ns]
/threads{locality#0/pool#default/worker-thread#5}/time/average,1,172.707402,[s],20688,[ns]
/threads{locality#0/pool#default/worker-thread#6}/time/average,1,172.706816,[s],20798,[ns]
/threads{locality#0/pool#default/worker-thread#7}/time/average,1,172.707863,[s],20906,[ns]
/threads{locality#0/pool#default/worker-thread#8}/time/average,1,172.708907,[s],25027,[ns]
/threads{locality#0/pool#default/worker-thread#9}/time/average,1,172.706825,[s],20364,[ns]
/threads{locality#0/pool#default/worker-thread#10}/time/average,1,172.707875,[s],20268,[ns]
/threads{locality#0/pool#default/worker-thread#11}/time/average,1,172.707879,[s],20034,[ns]
/threads{locality#0/pool#default/worker-thread#12}/time/average,1,172.708169,[s],19755,[ns]
/threads{locality#0/pool#default/worker-thread#13}/time/average,1,172.707888,[s],19560,[ns]
/threads{locality#0/pool#default/worker-thread#14}/time/average,1,172.707892,[s],19692,[ns]
/threads{locality#0/pool#default/worker-thread#15}/time/average,1,172.707895,[s],19534,[ns]
/threads{locality#0/total}/time/cumulative-overhead,1,172.708855,[s],1.16975e+12,[ns]
/threads{locality#0/pool#default/worker-thread#0}/time/cumulative-overhead,1,172.709052,[s],5.60474e+10,[ns]
/threads{locality#0/pool#default/worker-thread#1}/time/cumulative-overhead,1,172.708948,[s],7.07947e+10,[ns]
/threads{locality#0/pool#default/worker-thread#2}/time/cumulative-overhead,1,172.707919,[s],7.17769e+10,[ns]
/threads{locality#0/pool#default/worker-thread#3}/time/cumulative-overhead,1,172.708966,[s],7.22444e+10,[ns]
/threads{locality#0/pool#default/worker-thread#4}/time/cumulative-overhead,1,172.706729,[s],7.27125e+10,[ns]
/threads{locality#0/pool#default/worker-thread#5}/time/cumulative-overhead,1,172.706889,[s],7.31841e+10,[ns]
/threads{locality#0/pool#default/worker-thread#6}/time/cumulative-overhead,1,172.707713,[s],7.35961e+10,[ns]
/threads{locality#0/pool#default/worker-thread#7}/time/cumulative-overhead,1,172.708981,[s],7.40692e+10,[ns]
/threads{locality#0/pool#default/worker-thread#8}/time/cumulative-overhead,1,172.707720,[s],6.01293e+10,[ns]
/threads{locality#0/pool#default/worker-thread#9}/time/cumulative-overhead,1,172.707948,[s],7.66041e+10,[ns]
/threads{locality#0/pool#default/worker-thread#10}/time/cumulative-overhead,1,172.708905,[s],7.6728e+10,[ns]
/threads{locality#0/pool#default/worker-thread#11}/time/cumulative-overhead,1,172.708997,[s],7.72083e+10,[ns]
/threads{locality#0/pool#default/worker-thread#12}/time/cumulative-overhead,1,172.708752,[s],7.80818e+10,[ns]
/threads{locality#0/pool#default/worker-thread#13}/time/cumulative-overhead,1,172.707965,[s],7.87195e+10,[ns]
/threads{locality#0/pool#default/worker-thread#14}/time/cumulative-overhead,1,172.707969,[s],7.88269e+10,[ns]
/threads{locality#0/pool#default/worker-thread#15}/time/cumulative-overhead,1,172.707972,[s],7.90256e+10,[ns]
/threads{locality#0/total}/count/cumulative,1,172.709018,[s],7.44764e+07
/threads{locality#0/pool#default/worker-thread#0}/count/cumulative,1,172.706781,[s],4.19472e+06
/threads{locality#0/pool#default/worker-thread#1}/count/cumulative,1,172.707761,[s],4.60453e+06
/threads{locality#0/pool#default/worker-thread#2}/count/cumulative,1,172.709029,[s],4.65941e+06
/threads{locality#0/pool#default/worker-thread#3}/count/cumulative,1,172.706793,[s],4.71078e+06
/threads{locality#0/pool#default/worker-thread#4}/count/cumulative,1,172.709037,[s],4.72551e+06
/threads{locality#0/pool#default/worker-thread#5}/count/cumulative,1,172.709046,[s],4.75738e+06
/threads{locality#0/pool#default/worker-thread#6}/count/cumulative,1,172.706916,[s],4.71237e+06
/threads{locality#0/pool#default/worker-thread#7}/count/cumulative,1,172.709054,[s],4.66556e+06
/threads{locality#0/pool#default/worker-thread#8}/count/cumulative,1,172.708906,[s],4.4542e+06
/threads{locality#0/pool#default/worker-thread#9}/count/cumulative,1,172.708598,[s],4.66529e+06
/threads{locality#0/pool#default/worker-thread#10}/count/cumulative,1,172.708916,[s],4.68106e+06
/threads{locality#0/pool#default/worker-thread#11}/count/cumulative,1,172.708032,[s],4.7118e+06
/threads{locality#0/pool#default/worker-thread#12}/count/cumulative,1,172.708828,[s],4.73422e+06
/threads{locality#0/pool#default/worker-thread#13}/count/cumulative,1,172.708756,[s],4.74876e+06
/threads{locality#0/pool#default/worker-thread#14}/count/cumulative,1,172.708043,[s],4.71138e+06
/threads{locality#0/pool#default/worker-thread#15}/count/cumulative,1,172.708624,[s],4.73946e+06
/threads{locality#0/total}/time/average-overhead,1,172.709095,[s],15706,[ns]
/threads{locality#0/pool#default/worker-thread#0}/time/average-overhead,1,172.707832,[s],13361,[ns]
/threads{locality#0/pool#default/worker-thread#1}/time/average-overhead,1,172.707133,[s],15375,[ns]
/threads{locality#0/pool#default/worker-thread#2}/time/average-overhead,1,172.706869,[s],15404,[ns]
/threads{locality#0/pool#default/worker-thread#3}/time/average-overhead,1,172.707623,[s],15335,[ns]
/threads{locality#0/pool#default/worker-thread#4}/time/average-overhead,1,172.709119,[s],15387,[ns]
/threads{locality#0/pool#default/worker-thread#5}/time/average-overhead,1,172.707151,[s],15383,[ns]
/threads{locality#0/pool#default/worker-thread#6}/time/average-overhead,1,172.707041,[s],15617,[ns]
/threads{locality#0/pool#default/worker-thread#7}/time/average-overhead,1,172.708089,[s],15875,[ns]
/threads{locality#0/pool#default/worker-thread#8}/time/average-overhead,1,172.708092,[s],13499,[ns]
/threads{locality#0/pool#default/worker-thread#9}/time/average-overhead,1,172.708383,[s],16420,[ns]
/threads{locality#0/pool#default/worker-thread#10}/time/average-overhead,1,172.708102,[s],16391,[ns]
/threads{locality#0/pool#default/worker-thread#11}/time/average-overhead,1,172.708136,[s],16386,[ns]
/threads{locality#0/pool#default/worker-thread#12}/time/average-overhead,1,172.709084,[s],16493,[ns]
/threads{locality#0/pool#default/worker-thread#13}/time/average-overhead,1,172.708738,[s],16576,[ns]
/threads{locality#0/pool#default/worker-thread#14}/time/average-overhead,1,172.709140,[s],16731,[ns]
/threads{locality#0/pool#default/worker-thread#15}/time/average-overhead,1,172.709230,[s],16673,[ns]
