
 Dense Matrix/Dense Vector Multiplication:
   Blaze [MFlop/s]:
     414         8217.65
     455         9072.63
     500         10453.4
     550         11426.7
     605         12684.3
     665         13717.8
     731         14870.9
     804         16183.4
     884         17606.6
     972         18322.5
     1069        19172.8
     1175        19500.2
     1292        19961.7
     1421        18603.8
     1563        15315.1
     1719        11282
     1890        8287.78
     2079        7068.49
     2286        6615.14
     2514        6420.19
     2765        6362.08
     3041        6333.61
     3345        6520.2
     3679        6291.52
     4046        6300.59
     4450        6315.47
     4895        6323.86
     5384        6326.12
     5922        6337.76
     6514        6346.43
     7165        6346.31
     7881        6354.33
     8669        6352.38
     9535        6370.96
     10000       6378.87
/threads{locality#0/total}/idle-rate,1,400.457605,[s],1842,[0.01%]
/threads{locality#0/pool#default/worker-thread#0}/idle-rate,1,400.457165,[s],1896,[0.01%]
/threads{locality#0/pool#default/worker-thread#1}/idle-rate,1,400.457468,[s],1799,[0.01%]
/threads{locality#0/pool#default/worker-thread#2}/idle-rate,1,400.457626,[s],1736,[0.01%]
/threads{locality#0/pool#default/worker-thread#3}/idle-rate,1,400.457485,[s],1936,[0.01%]
/threads{locality#0/total}/time/average,1,400.457189,[s],31185,[ns]
/threads{locality#0/pool#default/worker-thread#0}/time/average,1,400.457183,[s],30922,[ns]
/threads{locality#0/pool#default/worker-thread#1}/time/average,1,400.457629,[s],31549,[ns]
/threads{locality#0/pool#default/worker-thread#2}/time/average,1,400.457488,[s],31615,[ns]
/threads{locality#0/pool#default/worker-thread#3}/time/average,1,400.457632,[s],30659,[ns]
/threads{locality#0/total}/time/cumulative-overhead,1,400.457186,[s],2.89338e+11,[ns]
/threads{locality#0/pool#default/worker-thread#0}/time/cumulative-overhead,1,400.457491,[s],7.44562e+10,[ns]
/threads{locality#0/pool#default/worker-thread#1}/time/cumulative-overhead,1,400.457191,[s],7.06519e+10,[ns]
/threads{locality#0/pool#default/worker-thread#2}/time/cumulative-overhead,1,400.457495,[s],6.81878e+10,[ns]
/threads{locality#0/pool#default/worker-thread#3}/time/cumulative-overhead,1,400.457197,[s],7.60425e+10,[ns]
/threads{locality#0/total}/count/cumulative,1,400.457641,[s],4.10886e+07
/threads{locality#0/pool#default/worker-thread#0}/count/cumulative,1,400.457502,[s],1.02907e+07
/threads{locality#0/pool#default/worker-thread#1}/count/cumulative,1,400.457505,[s],1.02069e+07
/threads{locality#0/pool#default/worker-thread#2}/count/cumulative,1,400.457649,[s],1.02635e+07
/threads{locality#0/pool#default/worker-thread#3}/count/cumulative,1,400.457652,[s],1.03275e+07
/threads{locality#0/total}/time/average-overhead,1,400.457213,[s],7041,[ns]
/threads{locality#0/pool#default/worker-thread#0}/time/average-overhead,1,400.457657,[s],7235,[ns]
/threads{locality#0/pool#default/worker-thread#1}/time/average-overhead,1,400.457518,[s],6921,[ns]
/threads{locality#0/pool#default/worker-thread#2}/time/average-overhead,1,400.457662,[s],6643,[ns]
/threads{locality#0/pool#default/worker-thread#3}/time/average-overhead,1,400.457533,[s],7363,[ns]
