
 Dense Matrix/Dense Vector Multiplication:
   Blaze [MFlop/s]:
     414         8297.62
     455         9282.88
     500         10561.6
     550         11542.7
     605         12656.8
     665         13864.1
     731         15023.8
     804         16264.7
     884         17584.9
     972         18396.3
     1069        19170.3
     1175        19365.4
     1292        19890.2
     1421        18414.5
     1563        15895.1
     1719        11330
     1890        8366.94
     2079        7148.68
     2286        6655.15
     2514        6455
     2765        6398.48
     3041        6349.03
     3345        6309.58
     3679        6301.22
     4046        6297.61
     4450        6311.8
     4895        6322.25
     5384        6334.96
     5922        6324.92
     6514        6345.81
     7165        6344.18
     7881        6353.5
     8669        6356.34
     9535        6368.49
     10000       6378.61
/threads{locality#0/total}/idle-rate,1,400.268244,[s],1832,[0.01%]
/threads{locality#0/pool#default/worker-thread#0}/idle-rate,1,400.268033,[s],1776,[0.01%]
/threads{locality#0/pool#default/worker-thread#1}/idle-rate,1,400.268060,[s],1755,[0.01%]
/threads{locality#0/pool#default/worker-thread#2}/idle-rate,1,400.268072,[s],1915,[0.01%]
/threads{locality#0/pool#default/worker-thread#3}/idle-rate,1,400.268048,[s],1883,[0.01%]
/threads{locality#0/total}/time/average,1,400.268265,[s],31466,[ns]
/threads{locality#0/pool#default/worker-thread#0}/time/average,1,400.268262,[s],31658,[ns]
/threads{locality#0/pool#default/worker-thread#1}/time/average,1,400.268076,[s],31814,[ns]
/threads{locality#0/pool#default/worker-thread#2}/time/average,1,400.268054,[s],31185,[ns]
/threads{locality#0/pool#default/worker-thread#3}/time/average,1,400.268080,[s],31206,[ns]
/threads{locality#0/total}/time/cumulative-overhead,1,400.268058,[s],2.91799e+11,[ns]
/threads{locality#0/pool#default/worker-thread#0}/time/cumulative-overhead,1,400.268084,[s],7.07011e+10,[ns]
/threads{locality#0/pool#default/worker-thread#1}/time/cumulative-overhead,1,400.268276,[s],6.98716e+10,[ns]
/threads{locality#0/pool#default/worker-thread#2}/time/cumulative-overhead,1,400.268278,[s],7.62529e+10,[ns]
/threads{locality#0/pool#default/worker-thread#3}/time/cumulative-overhead,1,400.268068,[s],7.49732e+10,[ns]
/threads{locality#0/total}/count/cumulative,1,400.268283,[s],4.13214e+07
/threads{locality#0/pool#default/worker-thread#0}/count/cumulative,1,400.268073,[s],1.03387e+07
/threads{locality#0/pool#default/worker-thread#1}/count/cumulative,1,400.268099,[s],1.03139e+07
/threads{locality#0/pool#default/worker-thread#2}/count/cumulative,1,400.268292,[s],1.03174e+07
/threads{locality#0/pool#default/worker-thread#3}/count/cumulative,1,400.268082,[s],1.03514e+07
/threads{locality#0/total}/time/average-overhead,1,400.268298,[s],7061,[ns]
/threads{locality#0/pool#default/worker-thread#0}/time/average-overhead,1,400.268087,[s],6838,[ns]
/threads{locality#0/pool#default/worker-thread#1}/time/average-overhead,1,400.268114,[s],6774,[ns]
/threads{locality#0/pool#default/worker-thread#2}/time/average-overhead,1,400.268092,[s],7390,[ns]
/threads{locality#0/pool#default/worker-thread#3}/time/average-overhead,1,400.268310,[s],7242,[ns]
