
 Dense Matrix/Dense Vector Multiplication:
   Blaze [MFlop/s]:
     414         3705.01
     455         4492.56
     500         5451.88
     550         6593.88
     605         7960.93
     665         9602.45
     731         11564.9
     804         13769.5
     884         16808.4
     972         20501.5
     1069        23896.3
     1175        28290.8
     1292        32151
     1421        33291.8
     1563        25642.9
     1719        17092.1
     1890        11746.6
     2079        9083.35
     2286        7630.48
     2514        7248.56
     2765        7132.08
     3041        6933.09
     3345        6652.03
     3679        6587.87
     4046        6713.99
     4450        6610.1
     4895        6519.5
     5384        6579.44
     5922        6631.43
     6514        6670.23
     7165        6670.93
     7881        6726.64
     8669        6711.91
     9535        6699.52
     10000       6664.98
/threads{locality#0/total}/idle-rate,1,394.188454,[s],4335,[0.01%]
/threads{locality#0/pool#default/worker-thread#0}/idle-rate,1,394.185824,[s],3169,[0.01%]
/threads{locality#0/pool#default/worker-thread#1}/idle-rate,1,394.186506,[s],4429,[0.01%]
/threads{locality#0/pool#default/worker-thread#2}/idle-rate,1,394.186879,[s],4461,[0.01%]
/threads{locality#0/pool#default/worker-thread#3}/idle-rate,1,394.187181,[s],4444,[0.01%]
/threads{locality#0/pool#default/worker-thread#4}/idle-rate,1,394.187675,[s],4494,[0.01%]
/threads{locality#0/pool#default/worker-thread#5}/idle-rate,1,394.188091,[s],4459,[0.01%]
/threads{locality#0/pool#default/worker-thread#6}/idle-rate,1,394.186905,[s],4507,[0.01%]
/threads{locality#0/pool#default/worker-thread#7}/idle-rate,1,394.186913,[s],4458,[0.01%]
/threads{locality#0/pool#default/worker-thread#8}/idle-rate,1,394.187216,[s],3207,[0.01%]
/threads{locality#0/pool#default/worker-thread#9}/idle-rate,1,394.188428,[s],4452,[0.01%]
/threads{locality#0/pool#default/worker-thread#10}/idle-rate,1,394.188511,[s],4467,[0.01%]
/threads{locality#0/pool#default/worker-thread#11}/idle-rate,1,394.186484,[s],4561,[0.01%]
/threads{locality#0/pool#default/worker-thread#12}/idle-rate,1,394.188522,[s],4558,[0.01%]
/threads{locality#0/pool#default/worker-thread#13}/idle-rate,1,394.185764,[s],4557,[0.01%]
/threads{locality#0/pool#default/worker-thread#14}/idle-rate,1,394.188530,[s],4541,[0.01%]
/threads{locality#0/pool#default/worker-thread#15}/idle-rate,1,394.188542,[s],4602,[0.01%]
/threads{locality#0/total}/time/average,1,394.185730,[s],31790,[ns]
/threads{locality#0/pool#default/worker-thread#0}/time/average,1,394.186970,[s],38247,[ns]
/threads{locality#0/pool#default/worker-thread#1}/time/average,1,394.187272,[s],30041,[ns]
/threads{locality#0/pool#default/worker-thread#2}/time/average,1,394.186980,[s],29817,[ns]
/threads{locality#0/pool#default/worker-thread#3}/time/average,1,394.186984,[s],30491,[ns]
/threads{locality#0/pool#default/worker-thread#4}/time/average,1,394.188493,[s],31121,[ns]
/threads{locality#0/pool#default/worker-thread#5}/time/average,1,394.186992,[s],31822,[ns]
/threads{locality#0/pool#default/worker-thread#6}/time/average,1,394.187295,[s],32030,[ns]
/threads{locality#0/pool#default/worker-thread#7}/time/average,1,394.188584,[s],32287,[ns]
/threads{locality#0/pool#default/worker-thread#8}/time/average,1,394.187005,[s],39284,[ns]
/threads{locality#0/pool#default/worker-thread#9}/time/average,1,394.188593,[s],30423,[ns]
/threads{locality#0/pool#default/worker-thread#10}/time/average,1,394.188599,[s],29680,[ns]
/threads{locality#0/pool#default/worker-thread#11}/time/average,1,394.185701,[s],29459,[ns]
/threads{locality#0/pool#default/worker-thread#12}/time/average,1,394.186657,[s],30443,[ns]
/threads{locality#0/pool#default/worker-thread#13}/time/average,1,394.185720,[s],31200,[ns]
/threads{locality#0/pool#default/worker-thread#14}/time/average,1,394.185873,[s],31814,[ns]
/threads{locality#0/pool#default/worker-thread#15}/time/average,1,394.185735,[s],31092,[ns]
/threads{locality#0/total}/time/cumulative-overhead,1,394.185826,[s],2.71796e+12,[ns]
/threads{locality#0/pool#default/worker-thread#0}/time/cumulative-overhead,1,394.187855,[s],1.2418e+11,[ns]
/threads{locality#0/pool#default/worker-thread#1}/time/cumulative-overhead,1,394.187074,[s],1.73534e+11,[ns]
/threads{locality#0/pool#default/worker-thread#2}/time/cumulative-overhead,1,394.187079,[s],1.7479e+11,[ns]
/threads{locality#0/pool#default/worker-thread#3}/time/cumulative-overhead,1,394.188285,[s],1.74124e+11,[ns]
/threads{locality#0/pool#default/worker-thread#4}/time/cumulative-overhead,1,394.187090,[s],1.76086e+11,[ns]
/threads{locality#0/pool#default/worker-thread#5}/time/cumulative-overhead,1,394.187432,[s],1.74707e+11,[ns]
/threads{locality#0/pool#default/worker-thread#6}/time/cumulative-overhead,1,394.187396,[s],1.76601e+11,[ns]
/threads{locality#0/pool#default/worker-thread#7}/time/cumulative-overhead,1,394.188609,[s],1.74679e+11,[ns]
/threads{locality#0/pool#default/worker-thread#8}/time/cumulative-overhead,1,394.185928,[s],1.25662e+11,[ns]
/threads{locality#0/pool#default/worker-thread#9}/time/cumulative-overhead,1,394.186743,[s],1.74448e+11,[ns]
/threads{locality#0/pool#default/worker-thread#10}/time/cumulative-overhead,1,394.186072,[s],1.75039e+11,[ns]
/threads{locality#0/pool#default/worker-thread#11}/time/cumulative-overhead,1,394.185806,[s],1.78705e+11,[ns]
/threads{locality#0/pool#default/worker-thread#12}/time/cumulative-overhead,1,394.187133,[s],1.78612e+11,[ns]
/threads{locality#0/pool#default/worker-thread#13}/time/cumulative-overhead,1,394.186687,[s],1.7855e+11,[ns]
/threads{locality#0/pool#default/worker-thread#14}/time/cumulative-overhead,1,394.186773,[s],1.7793e+11,[ns]
/threads{locality#0/pool#default/worker-thread#15}/time/cumulative-overhead,1,394.186697,[s],1.80316e+11,[ns]
/threads{locality#0/total}/count/cumulative,1,394.187154,[s],1.11683e+08
/threads{locality#0/pool#default/worker-thread#0}/count/cumulative,1,394.187494,[s],6.99657e+06
/threads{locality#0/pool#default/worker-thread#1}/count/cumulative,1,394.187163,[s],7.26484e+06
/threads{locality#0/pool#default/worker-thread#2}/count/cumulative,1,394.187503,[s],7.27732e+06
/threads{locality#0/pool#default/worker-thread#3}/count/cumulative,1,394.187172,[s],7.1383e+06
/threads{locality#0/pool#default/worker-thread#4}/count/cumulative,1,394.187473,[s],6.93075e+06
/threads{locality#0/pool#default/worker-thread#5}/count/cumulative,1,394.188725,[s],6.82139e+06
/threads{locality#0/pool#default/worker-thread#6}/count/cumulative,1,394.187186,[s],6.71782e+06
/threads{locality#0/pool#default/worker-thread#7}/count/cumulative,1,394.186140,[s],6.72398e+06
/threads{locality#0/pool#default/worker-thread#8}/count/cumulative,1,394.187198,[s],6.7741e+06
/threads{locality#0/pool#default/worker-thread#9}/count/cumulative,1,394.186156,[s],7.1435e+06
/threads{locality#0/pool#default/worker-thread#10}/count/cumulative,1,394.185889,[s],7.3025e+06
/threads{locality#0/pool#default/worker-thread#11}/count/cumulative,1,394.185894,[s],7.23274e+06
/threads{locality#0/pool#default/worker-thread#12}/count/cumulative,1,394.186770,[s],7.002e+06
/threads{locality#0/pool#default/worker-thread#13}/count/cumulative,1,394.185989,[s],6.83414e+06
/threads{locality#0/pool#default/worker-thread#14}/count/cumulative,1,394.186182,[s],6.72178e+06
/threads{locality#0/pool#default/worker-thread#15}/count/cumulative,1,394.187237,[s],6.80113e+06
/threads{locality#0/total}/time/average-overhead,1,394.187244,[s],24336,[ns]
/threads{locality#0/pool#default/worker-thread#0}/time/average-overhead,1,394.187584,[s],17748,[ns]
/threads{locality#0/pool#default/worker-thread#1}/time/average-overhead,1,394.187257,[s],23886,[ns]
/threads{locality#0/pool#default/worker-thread#2}/time/average-overhead,1,394.187261,[s],24018,[ns]
/threads{locality#0/pool#default/worker-thread#3}/time/average-overhead,1,394.188054,[s],24392,[ns]
/threads{locality#0/pool#default/worker-thread#4}/time/average-overhead,1,394.187607,[s],25406,[ns]
/threads{locality#0/pool#default/worker-thread#5}/time/average-overhead,1,394.187276,[s],25611,[ns]
/threads{locality#0/pool#default/worker-thread#6}/time/average-overhead,1,394.186231,[s],26288,[ns]
/threads{locality#0/pool#default/worker-thread#7}/time/average-overhead,1,394.186918,[s],25978,[ns]
/threads{locality#0/pool#default/worker-thread#8}/time/average-overhead,1,394.186844,[s],18550,[ns]
/threads{locality#0/pool#default/worker-thread#9}/time/average-overhead,1,394.186619,[s],24420,[ns]
/threads{locality#0/pool#default/worker-thread#10}/time/average-overhead,1,394.186255,[s],23969,[ns]
/threads{locality#0/pool#default/worker-thread#11}/time/average-overhead,1,394.188928,[s],24707,[ns]
/threads{locality#0/pool#default/worker-thread#12}/time/average-overhead,1,394.186677,[s],25508,[ns]
/threads{locality#0/pool#default/worker-thread#13}/time/average-overhead,1,394.186020,[s],26126,[ns]
/threads{locality#0/pool#default/worker-thread#14}/time/average-overhead,1,394.188234,[s],26470,[ns]
/threads{locality#0/pool#default/worker-thread#15}/time/average-overhead,1,394.187716,[s],26512,[ns]
